T(K),a,da/dT
296.666272,0,
296.7858667,0.000610328,0.005103307
297.0397873,0.001215009,0.002381378
297.450506,0.001843023,0.00152906
298.0293327,0.002479452,0.001099516
298.7869313,0.003131969,0.000861296
299.7117533,0.003797028,0.000719121
300.7843753,0.004497282,0.000652843
301.9848273,0.005229984,0.000610356
303.2941813,0.005986424,0.00057772
304.6758053,0.006786442,0.000579042
306.117518,0.007618088,0.000576846
307.5919607,0.008513953,0.000607595
309.0823127,0.0094335,0.000617
310.5657627,0.010392368,0.000646377
312.033154,0.011403165,0.000688839
313.4691267,0.012423166,0.00071032
314.8728413,0.013464628,0.000741933
316.2404407,0.014541996,0.000787781
317.5727193,0.015649537,0.000831313
318.8647693,0.016766303,0.000864337
320.1191453,0.017868678,0.000878824
321.3446707,0.018986058,0.000911755
322.5445947,0.020116898,0.000942427
323.721766,0.0212328,0.000947952
324.8868227,0.0223459,0.000955404
326.0375147,0.023451329,0.000960664
327.1852273,0.024552631,0.000959563
328.332198,0.025635844,0.000944412
329.4847047,0.026692966,0.000917238
330.6407747,0.027747364,0.000912053
331.80939,0.028790117,0.000892298
332.9873147,0.029808366,0.000864444
334.1801927,0.030821932,0.000849681
335.387104,0.031812023,0.000820351
336.6083487,0.032776473,0.000789727
337.838752,0.033748179,0.000789746
339.08381,0.034684185,0.000751778
340.3368433,0.035607289,0.000736695
341.598118,0.03652027,0.000723856
342.8688367,0.03738095,0.000677318
344.143488,0.038245843,0.000678533
345.42402,0.039078967,0.000650607
346.7046627,0.039906662,0.000646312
347.983016,0.040700792,0.000621214
349.265028,0.041473779,0.000602948
350.5444253,0.042220205,0.00058342
351.8209487,0.04295084,0.000572363
353.095206,0.043658973,0.000555723
354.3708127,0.04434465,0.00053753
355.636174,0.044986704,0.000507408
356.894968,0.045629383,0.000510551
358.1517273,0.046243563,0.000488702
359.4063593,0.046850772,0.000483974
360.6554133,0.047429407,0.000463258
361.905964,0.047984556,0.000443924
363.1544413,0.048529429,0.00043643
364.399304,0.049045816,0.000414814
365.642658,0.049543313,0.000400125
366.888196,0.050026834,0.000388203
368.1344567,0.050475007,0.000359614
369.3780013,0.050928663,0.000364809
370.6242387,0.051356787,0.000343533
371.8747713,0.051774974,0.000334407
373.122642,0.052154693,0.000304294
374.37244,0.052541679,0.000309639
375.6278067,0.052927625,0.000307437
376.8845133,0.05329048,0.000288735
378.1385733,0.053637751,0.000276917
379.3956867,0.053974209,0.000267643
380.6531333,0.054306278,0.000264082
381.9117533,0.054623289,0.000251872
383.1689,0.054925789,0.000240624
384.4299067,0.055224425,0.000236824
385.6880933,0.05550728,0.000224812
386.9475467,0.055782978,0.000218903
388.20522,0.056048235,0.000210911
389.4589267,0.056310778,0.000209414
390.71666,0.056547669,0.000188347
391.9728867,0.056795088,0.000196954
393.22944,0.057020805,0.000179632
394.4836333,0.057266834,0.000196165
395.7377,0.057470193,0.00016216
396.99172,0.057687352,0.00017317
398.2429333,0.057892943,0.000164314
399.49376,0.058096357,0.000162623
400.74226,0.058273855,0.000142169
401.9930733,0.058442675,0.000134968
403.2445933,0.058631019,0.000150492
404.4986333,0.058791697,0.000128128
405.7472867,0.058959226,0.000134167
407.0033667,0.059115876,0.000124714
408.2517933,0.059262513,0.000117457
409.5055867,0.059401544,0.000110888
410.75432,0.059535978,0.000107657
412.00454,0.05966656,0.000104447
413.2581,0.059790664,9.90008E-05
414.5103333,0.05989857,8.61712E-05
415.7620733,0.060028857,0.000104084
417.0127733,0.060133721,8.38443E-05
418.2651133,0.060238344,8.35423E-05
419.5189733,0.060339247,8.04734E-05
420.7732,0.060441528,8.15493E-05
422.0243067,0.060524953,6.6681E-05
423.2787467,0.060617757,7.39804E-05
424.5303467,0.06069942,6.5247E-05
425.7844267,0.060773477,5.90529E-05
427.0356,0.060852426,6.31E-05
428.2811933,0.060934111,6.55792E-05
429.53126,0.060993635,4.76164E-05
430.78482,0.06105978,5.27655E-05
432.03646,0.061112857,4.24065E-05
433.2887267,0.061184332,5.7076E-05
434.5415,0.061234936,4.03939E-05
435.79454,0.061281174,3.69005E-05
437.0449867,0.061329382,3.85524E-05
438.2949867,0.061371581,3.37596E-05
439.54614,0.061414295,3.41396E-05
440.7987933,0.061455816,3.31465E-05
442.0483667,0.061496801,3.2799E-05
443.3005067,0.061525463,2.28904E-05
444.55396,0.061562158,2.92749E-05
445.8044933,0.061601282,3.12861E-05
447.0543467,0.06162399,1.81689E-05
448.31016,0.061641884,1.42483E-05
449.5647733,0.06165877,1.34594E-05
450.81836,0.061674365,1.24403E-05
452.07692,0.061687935,1.07825E-05
453.3266467,0.061699995,9.65022E-06
454.57678,0.061713883,1.1109E-05
455.8273533,0.061718326,3.55294E-06
457.0796333,0.06170979,-6.81654E-06
458.3342733,0.061709385,-3.2274E-07
459.5880467,0.061685987,-1.8662E-05
460.8424467,0.061656143,-2.37914E-05
462.09576,0.061642387,-1.09761E-05
463.3506533,0.061636817,-4.43896E-06
464.60416,0.061661976,2.00716E-05
465.85862,0.061682069,1.60172E-05
467.11058,0.061655552,-2.11804E-05
468.3645867,0.061666825,8.98893E-06
469.6182133,0.061653013,-1.1017E-05
470.8737333,0.061623509,-2.34999E-05
472.1280333,0.061588521,-2.78941E-05
473.3827667,0.061554913,-2.67855E-05
474.64142,0.061518535,-2.89018E-05
475.9004933,0.061478032,-3.21691E-05
477.1592333,0.061446382,-2.51439E-05
478.41694,0.061394257,-4.1445E-05
479.6737733,0.06135452,-3.16169E-05
480.9300733,0.061309902,-3.55155E-05
482.1871467,0.06125608,-4.28153E-05
483.44682,0.061220173,-2.85049E-05
484.7035667,0.061155965,-5.10904E-05
485.9628267,0.06110674,-3.90908E-05
487.2235133,0.06104691,-4.74583E-05
488.4843733,0.060986215,-4.81375E-05
489.7429867,0.060924338,-4.91625E-05
491.0073267,0.060861772,-4.94852E-05
492.26796,0.060793154,-5.44314E-05
493.5273133,0.060733652,-4.72479E-05
494.7859267,0.060649888,-6.65529E-05
496.04732,0.060597062,-4.18791E-05
497.3096267,0.060523596,-5.81999E-05
498.5696067,0.060466316,-4.54612E-05
499.8282933,0.060415799,-4.01346E-05
501.08902,0.06033418,-6.47399E-05
502.3497733,0.060265627,-5.43741E-05
503.6181733,0.060185321,-6.33129E-05
504.8822,0.060121508,-5.04844E-05
506.14452,0.060042755,-6.23867E-05
507.4128533,0.059967046,-5.96922E-05
508.6744333,0.059885842,-6.43665E-05
509.9406667,0.059820912,-5.1278E-05
511.20548,0.0597396,-6.42885E-05
512.46808,0.059669953,-5.51614E-05
513.7338133,0.059596607,-5.79472E-05
514.9986067,0.059519781,-6.07419E-05
516.2686733,0.059446753,-5.74997E-05
517.5381467,0.059394321,-4.13022E-05
518.8035533,0.059314803,-6.284E-05
520.0720533,0.059265577,-3.88061E-05
521.3393667,0.059195624,-5.5198E-05
522.6061533,0.059131055,-5.09705E-05
523.8733333,0.059076566,-4.30006E-05
525.14464,0.059032079,-3.4993E-05
526.4179333,0.058975806,-4.41951E-05
527.6876333,0.058941234,-2.72282E-05
528.95892,0.058901431,-3.13091E-05
530.2335533,0.058856102,-3.55628E-05
531.5059733,0.058845158,-8.60083E-06
532.7787333,0.058806099,-3.06881E-05
534.0534133,0.058793842,-9.61585E-06
535.3284333,0.058773837,-1.56902E-05
536.6038667,0.058773333,-3.94703E-07
537.8796333,0.058764414,-6.99128E-06
539.1559267,0.058784704,1.58975E-05
540.43108,0.058823314,3.02787E-05
541.7089,0.058850061,2.09316E-05
542.9862333,0.058878755,2.24646E-05
544.2658867,0.058949825,5.5538E-05
545.5441333,0.059020073,5.4957E-05
546.82224,0.059093419,5.73863E-05
548.1014667,0.059188784,7.45488E-05
549.38184,0.059281457,7.23794E-05
550.6585267,0.059413177,0.000103174
551.9387667,0.059552503,0.000108828
553.2200467,0.059706702,0.000120348
554.5023533,0.059876518,0.00013243
555.7798867,0.060079056,0.000158538
557.0603,0.060280872,0.000157618
558.3449933,0.06051958,0.000185809
559.62916,0.060781827,0.000204216
560.91232,0.061057821,0.000215089
562.1965533,0.061354728,0.000231194
563.4787133,0.061681303,0.000254708
564.7642933,0.062028432,0.000270017
566.0501333,0.062404912,0.000292789
567.3335867,0.062823263,0.000325957
568.6161333,0.063244875,0.000328731
569.8991733,0.06370989,0.000362433
571.18472,0.064204028,0.000384379
572.47054,0.064742302,0.000418623
573.7539467,0.065298994,0.000433761
575.0369,0.065884688,0.00045652
576.3212933,0.066524039,0.000497785
577.6056533,0.067185552,0.000515052
578.8904267,0.067896487,0.000553355
580.1728667,0.068638163,0.000578332
581.4543333,0.069431363,0.000618978
582.73876,0.070270298,0.000653159
584.0241467,0.071143596,0.000679405
585.3091133,0.072053808,0.000708355
586.5930067,0.073036885,0.000765699
587.879,0.074055145,0.000791809
589.1617667,0.07512633,0.000835059
590.4471133,0.076241795,0.000867831
591.7308733,0.077429992,0.00092556
593.0140867,0.078655244,0.000954832
594.30024,0.079941389,0.000999993
595.5838733,0.081274724,0.001038719
596.8692867,0.082703762,0.001111735
598.1520667,0.084156582,0.001132556
599.4345867,0.085672022,0.001181611
600.71762,0.087257065,0.001235387
602.00234,0.088926989,0.001299835
603.2863867,0.090657914,0.001348023
604.5726933,0.092457983,0.001399408
605.8595133,0.094327216,0.001452599
607.1481467,0.096281888,0.001516857
608.4321267,0.098304818,0.001575515
609.7154067,0.100428233,0.001654678
611.0009267,0.102616535,0.00170227
612.2845733,0.104913455,0.001789371
613.5717067,0.10727978,0.001838446
614.8647933,0.109736065,0.001899551
616.1512933,0.112304633,0.001996555
617.4434867,0.114956188,0.002051981
618.7388133,0.117715202,0.002129975
620.0332067,0.120585164,0.002217226
621.3319067,0.123566983,0.002296003
622.6276067,0.126632939,0.002366254
623.9301533,0.129852919,0.002472065
625.2350867,0.133180564,0.00255005
626.5438133,0.136630737,0.002636282
627.8520133,0.140205211,0.00273236
629.1658933,0.143904324,0.002815412
630.48008,0.147753674,0.002929074
631.7991067,0.15173829,0.003020876
633.11928,0.155896236,0.003149545
634.44458,0.160222629,0.003264463
635.7771333,0.164701678,0.003361253
637.1086,0.169320721,0.003469139
638.44422,0.17415851,0.00362213
639.7885,0.179189699,0.003742664
641.1303933,0.184429576,0.003904839
642.48054,0.189867089,0.00402735
643.83784,0.195521498,0.004165924
645.2041333,0.201404338,0.004305693
646.5758467,0.207546603,0.004477805
647.95862,0.213988324,0.004658552
649.3501333,0.220716501,0.004835151
650.75894,0.227729076,0.00497767
652.17418,0.235122695,0.005224286
653.60468,0.242923272,0.005453042
655.0517733,0.251141894,0.0056794
656.52074,0.259820814,0.005908181
658.0068933,0.26903965,0.006203153
659.5218,0.278886368,0.006499884
661.0751733,0.289520727,0.006845977
662.6755667,0.301020274,0.007185451
664.3312133,0.313532053,0.007557034
666.0501733,0.327202031,0.00795247
667.8564267,0.342398065,0.008413014
669.7742667,0.35957473,0.008956256
671.9765867,0.380969926,0.009714844
675.1197933,0.425666903,0.014220184
678.3354267,0.464539107,0.012088506
680.8416933,0.490956627,0.010540586
682.4803133,0.510560739,0.011963794
683.4944333,0.526235425,0.015456441
684.1356,0.539677695,0.020965328
684.59278,0.551843614,0.026610787
684.9760333,0.563123726,0.029432522
685.3497667,0.573685691,0.028260699
685.7542733,0.583710433,0.024782637
686.20846,0.593317689,0.021152658
686.7236267,0.60257102,0.01796182
687.3074667,0.611517835,0.015324087
687.9606133,0.620233253,0.013343738
688.68394,0.628759769,0.011787919
689.4733867,0.637101663,0.01056676
690.3195467,0.645303256,0.009692721
691.2206267,0.65338753,0.008971761
692.1675,0.661362782,0.008422723
693.15698,0.669197471,0.007917986
694.18246,0.676953912,0.007563717
695.23836,0.684603496,0.007244611
696.3191267,0.692173869,0.007004632
697.41758,0.699665643,0.006820293
698.5294533,0.707133614,0.006716566
699.6540267,0.714523096,0.00657092
700.78438,0.72182819,0.006462664
701.9177933,0.729023921,0.006348727
703.05954,0.736162865,0.006252651
704.2033333,0.74321486,0.006165445
705.3447067,0.750174248,0.006097381
706.49342,0.757074682,0.006007098
707.6409333,0.763851767,0.005905888
708.7876267,0.77058384,0.005870857
709.9419467,0.777243202,0.005769078
711.0945,0.78387214,0.005751524
712.2466267,0.790403732,0.005669162
713.4000733,0.7968962,0.005628754
714.5547333,0.803296488,0.005543007
715.71498,0.809624886,0.005454355
716.8773867,0.815860206,0.005364147
718.0470533,0.822081168,0.005318577
719.21562,0.828238896,0.005269471
720.3809,0.834308745,0.005208919
721.54872,0.840241161,0.005079906
722.7108133,0.846065517,0.005011952
723.8704533,0.851793732,0.004939649
725.0280933,0.857381865,0.004827177
726.1820067,0.862851202,0.004739816
727.33386,0.8681966,0.004640693
728.4851133,0.873429671,0.004545542
729.6405667,0.878554244,0.004435119
730.7982133,0.883572037,0.004334478
731.9505733,0.888453043,0.004235661
733.10202,0.893182029,0.004106994
734.24578,0.89774493,0.003989387
735.3809867,0.902113665,0.003848405
736.5081467,0.906278581,0.003695054
737.6238133,0.910247712,0.003557631
738.7428933,0.914044948,0.003393176
739.85448,0.917659399,0.003251614
740.9632,0.921087049,0.003091538
742.0756867,0.924344304,0.002927904
743.1944333,0.927470801,0.002794643
744.31592,0.930477244,0.002680766
745.44754,0.933357899,0.002545602
746.5876867,0.936122964,0.002425184
747.7284733,0.93877313,0.002323104
748.87234,0.941271723,0.00218434
750.0230067,0.943675312,0.002088867
751.1749933,0.945973698,0.00199515
752.3265467,0.948136403,0.001878076
753.4806867,0.950194429,0.001783169
754.63768,0.952141386,0.001682773
755.8008067,0.953987199,0.001586941
756.9650333,0.955734573,0.001500888
758.1311,0.957396223,0.001425005
759.2964733,0.958973639,0.001353571
760.4671067,0.96045013,0.001261276
761.63906,0.96184521,0.001190389
762.8157933,0.96316563,0.001122107
763.9966733,0.964410352,0.001054063
765.17954,0.965592344,0.00099926
766.3716533,0.966721948,0.000947564
767.5622467,0.967786818,0.000894403
768.7545467,0.968798578,0.000848578
769.9489333,0.969750968,0.000797388
771.14776,0.970646406,0.000746928
772.3483,0.971510402,0.000719673
773.55322,0.972341205,0.000689509
774.7585133,0.973104955,0.000633663
775.9693667,0.97384383,0.00061021
777.1800333,0.974532046,0.00056846
778.3936333,0.975188634,0.000541025
779.60956,0.975817884,0.000517507
780.82864,0.976405635,0.000482127
782.05038,0.976962295,0.000455628
783.27224,0.977503075,0.000442588
784.4957467,0.978025535,0.000427018
785.7208867,0.978510271,0.000395658
786.94436,0.978979347,0.000383397
788.1693533,0.979430836,0.000368564
789.3970267,0.979843048,0.000335766
790.6231267,0.980231708,0.000316989
791.8504133,0.98058955,0.000291572
793.0777867,0.980945762,0.000290223
794.3100733,0.981280141,0.000271348
795.54092,0.98160455,0.000263566
796.77394,0.98191935,0.000255308
798.0071867,0.982216563,0.000241001
799.2418467,0.982522357,0.000247674
800.4760533,0.982793535,0.000219718
801.71184,0.98305378,0.000210591
802.9475667,0.98331374,0.000210371
804.1861533,0.983564825,0.000202719
805.4223267,0.983808523,0.000197139
806.6589333,0.98402369,0.000173998
807.89482,0.9842419,0.000176561
809.1327133,0.984457768,0.000174383
810.3707933,0.984664672,0.000167117
811.6115933,0.984862165,0.000159166
812.8509,0.985047412,0.000149476
814.0913667,0.985227023,0.000144793
815.3311133,0.985406776,0.000144992
816.5707333,0.985584088,0.000143038
817.81064,0.985751737,0.000135211
819.04902,0.985917788,0.000134087
820.29012,0.986085755,0.000135337
821.5311667,0.986236791,0.000121701
822.7750533,0.986400435,0.000131558
824.0152133,0.986554382,0.000124135
825.2564733,0.986704772,0.00012116
826.49768,0.986842621,0.00011106
827.7403933,0.987006757,0.000132079
828.98226,0.987129493,9.88314E-05
830.2247267,0.987282652,0.00012327
831.4673067,0.98740704,0.000100105
832.70976,0.98755,0.000115062
833.9552867,0.987676051,0.000101203
835.19944,0.987822644,0.000117826
836.4370733,0.987952241,0.000104714
837.6824533,0.988089631,0.000110319
838.9258,0.988217521,0.000102859
840.1694867,0.988357394,0.000112467
841.41438,0.988488327,0.000105176
842.6602867,0.988639111,0.000121024
843.90444,0.988778525,0.000112055
845.1468533,0.988935799,0.000126588
846.3884267,0.989101818,0.000133716
847.6310533,0.989273932,0.000138508
848.87566,0.989449887,0.000141374
850.11716,0.989633777,0.000148119
851.3614533,0.989831127,0.000158605
852.6064,0.990028347,0.000158416
853.8509733,0.990246546,0.00017532
855.0956133,0.990461155,0.000172427
856.3398333,0.990682702,0.000178061
857.5861133,0.990917054,0.000188041
858.8297467,0.991167088,0.000201052
860.0750067,0.991426086,0.000207987
861.3192667,0.991677477,0.000202041
862.56422,0.991949027,0.000218121
863.80966,0.992223106,0.000220065
865.0559067,0.992514048,0.000233455
866.3039533,0.992800066,0.000229172
867.5506067,0.993083227,0.000227137
868.7966,0.993377048,0.000235813
870.04034,0.993659925,0.000227441
871.2863667,0.993965894,0.000245555
872.53238,0.994248202,0.000226569
873.77912,0.99453991,0.000233977
875.0228733,0.994807969,0.000215524
876.2668733,0.995088438,0.000225458
877.5151333,0.995333822,0.00019658
878.76134,0.995556496,0.000178682
880.00942,0.995755664,0.000159579
881.25598,0.995935833,0.000144533
882.5048,0.996065725,0.000104012
883.7558333,0.996178272,8.9963E-05
885.00584,0.996255755,6.19857E-05
886.2522867,0.99629883,3.45583E-05
887.5024867,0.996348493,3.97242E-05
888.7500667,0.996379727,2.50355E-05
889.9942333,0.996411387,2.54472E-05
891.2400067,0.996442358,2.4861E-05
892.4871133,0.996471765,2.35795E-05
893.7306467,0.99648655,1.18896E-05
894.97578,0.996512147,2.05582E-05
896.2210733,0.996522949,8.67393E-06
897.4649533,0.996542714,1.58895E-05
898.7098933,0.996571124,2.28206E-05
899.95528,0.996572656,1.23025E-06
901.19984,0.996603726,2.49643E-05
902.4468533,0.996613291,7.67028E-06
903.6935333,0.996633274,1.60294E-05
904.9397,0.996656989,1.90306E-05
906.1859867,0.996665427,6.77029E-06
907.4306467,0.996680431,1.20547E-05
908.6729533,0.99669538,1.20335E-05
909.9214267,0.99672112,2.06172E-05
911.1695,0.996729088,6.38354E-06
912.4159,0.996747101,1.44525E-05
913.6584733,0.996751194,3.29397E-06
914.9027533,0.996772611,1.72125E-05
916.1463533,0.996779232,5.32409E-06
917.3924,0.996811922,2.62344E-05
918.6358333,0.996815632,2.98365E-06
919.88062,0.996835101,1.56405E-05
921.1250667,0.996858586,1.88723E-05
922.37054,0.996870263,9.37563E-06
923.6153533,0.996890214,1.6027E-05
924.8594867,0.996873678,-1.32913E-05
926.10328,0.996884819,8.95716E-06
927.3509,0.996910581,2.06488E-05
928.5961,0.996917803,5.80063E-06
929.84084,0.996935905,1.45421E-05
931.08692,0.996961076,2.02001E-05
932.3305733,0.996975084,1.12637E-05
933.5776667,0.996997103,1.76563E-05
934.82654,0.99701759,1.64043E-05
936.0705733,0.997035702,1.45592E-05
937.3147333,0.997045693,8.03092E-06
938.5598933,0.997082465,2.95314E-05
939.8061,0.99710548,1.8468E-05
941.0515267,0.997117518,9.66596E-06
942.29864,0.997133004,1.24171E-05
943.5457933,0.997165376,2.59567E-05
944.79312,0.997206218,3.2744E-05
946.0370067,0.997227482,1.70947E-05
947.2803,0.997262262,2.79738E-05
948.5263133,0.997285736,1.88398E-05
949.7737933,0.997307186,1.71946E-05
951.0183333,0.997336253,2.33555E-05
952.26526,0.997360931,1.97914E-05
953.513,0.99739129,2.43306E-05
954.7615667,0.997430403,3.13266E-05
956.0105267,0.997461746,2.50955E-05
957.2569533,0.997487771,2.08793E-05
958.5025067,0.99752429,2.932E-05
959.74728,0.997552504,2.26654E-05
960.99492,0.997584241,2.54378E-05
962.2414267,0.997621724,3.00702E-05
963.4884867,0.997661986,3.22859E-05
964.7359067,0.997690079,2.25208E-05
965.9820933,0.997725647,2.85411E-05
967.2283933,0.99776476,3.13836E-05
968.47596,0.997806565,3.35097E-05
969.7234933,0.997846445,3.19666E-05
970.97024,0.99788465,3.06438E-05
972.2138267,0.997922932,3.07832E-05
973.46054,0.997965766,3.43578E-05
974.70686,0.998003533,3.0303E-05
975.9558467,0.998050449,3.75635E-05
977.2035467,0.998098263,3.83215E-05
978.4491667,0.998144446,3.70764E-05
979.6965133,0.998180988,2.92954E-05
980.9437667,0.99822913,3.85985E-05
