T(K),a,da/dT
303.15,0,
405.15,0,0
407.4833333,0,0
409.8166667,0,0
412.15,0,0
414.4833333,0,0
416.8166667,0,0
419.15,0,0
421.4833333,0,0
423.8166667,0,0
426.15,0,0
428.4833333,0,0
430.8166667,0,0
433.15,0,0
435.4833333,0,0
465.65,0,7.00E-06
467.9833333,0,1.70E-05
470.3166667,0,2.71E-05
472.65,0,5.03E-05
479.65,0.001592498,0.000162137
488.9833333,0.003186456,0.000303785
498.3166667,0.004778955,0.000448888
502.9833333,0.006372913,0.00052553
505.3166667,0.007965411,0.000553924
507.65,0.009559369,0.000580615
512.15,0.011153327,0.000660416
514.4833333,0.012745825,0.000705924
519.15,0.014339783,0.000788518
521.4833333,0.01672926,0.000827436
523.8166667,0.018323218,0.000865623
526.15,0.021509675,0.000904151
528.4833333,0.023899152,0.00094442
530.8166667,0.026288629,0.000983307
533.15,0.028679566,0.001022785
535.4833333,0.031069043,0.001054191
537.8166667,0.033458521,0.001086776
540.15,0.035849458,0.001123583
542.4833333,0.039035914,0.001162057
544.8166667,0.041425391,0.001198791
547.15,0.044611847,0.00123987
549.4833333,0.048595283,0.001310087
551.8166667,0.051781739,0.001360532
554.15,0.054969655,0.001365802
556.4833333,0.058156111,0.001365759
558.8166667,0.061342567,0.001365719
561.15,0.064529024,0.001365676
563.4833333,0.06771548,0.001365646
565.8166667,0.070901936,0.00136618
568.15,0.074088393,0.001368149
570.4833333,0.077274849,0.001370044
572.8166667,0.080462765,0.00137099
574.9833333,0.083649221,0.001371262
577.3166667,0.086835677,0.001371854
579.65,0.090022134,0.001312584
581.9833333,0.09320859,0.001252066
584.3166667,0.096395046,0.00120139
586.65,0.099581502,0.001124184
588.9833333,0.102767959,0.001053633
591.3166667,0.105158896,0.000986948
593.65,0.106751394,0.000921239
595.9833333,0.109142331,0.000855349
598.3166667,0.111531808,0.000788773
600.65,0.113125766,0.000721283
602.9833333,0.115515243,0.00060502
605.3166667,0.117904721,0.000728044
607.65,0.119498679,0.000851883
609.9833333,0.121888156,0.000976487
612.3166667,0.124279093,0.001101815
614.65,0.12666857,0.001227823
616.9833333,0.129855027,0.001354479
619.3166667,0.133838462,0.001481775
621.65,0.137821897,0.001609701
623.9833333,0.141008353,0.001738205
626.3166667,0.14419481,0.00186718
628.65,0.148178245,0.001996506
630.9833333,0.15216168,0.002126037
633.3166667,0.155348136,0.002255606
635.65,0.158534593,0.002385061
637.9833333,0.164907505,0.002514567
640.15,0.172874376,0.002629766
642.4833333,0.182435204,0.002752872
644.8166667,0.191197594,0.002875252
647.15,0.199961443,0.002997991
649.4833333,0.208723833,0.003123105
651.8166667,0.217487683,0.00325329
654.15,0.227047052,0.003389188
656.4833333,0.235013922,0.003525274
658.8166667,0.244573291,0.003651209
661.15,0.252540161,0.003758535
663.4833333,0.26210099,0.003842518
665.8166667,0.271660359,0.003902717
668.15,0.281219728,0.003943348
670.4833333,0.290780556,0.003978182
672.8166667,0.300339925,0.003985532
675.15,0.310696273,0.00399645
677.4833333,0.320257101,0.004002535
679.8166667,0.32981647,0.003981218
682.15,0.339375839,0.003950316
684.4833333,0.348936667,0.003912937
686.8166667,0.358496036,0.003871519
689.15,0.368056865,0.003827993
691.4833333,0.376819254,0.003781858
693.8166667,0.384786125,0.003732128
696.15,0.391956016,0.00367744
698.4833333,0.399922887,0.003617275
700.8166667,0.407092779,0.003551069
703.15,0.415059649,0.003478664
705.3166667,0.42302506,0.003406422
707.65,0.43099193,0.003324513
709.9833333,0.438958801,0.003240639
712.3166667,0.446925671,0.003156834
714.65,0.454892542,0.003074611
716.9833333,0.462062433,0.002993823
719.3166667,0.469232325,0.002913058
721.65,0.474808259,0.002830067
723.9833333,0.479588673,0.002743741
726.3166667,0.485164606,0.002653887
728.65,0.490742,0.00255987
730.9833333,0.495522414,0.002462582
733.3166667,0.501098347,0.002365016
735.65,0.506675741,0.002270748
737.9833333,0.511454695,0.002181996
740.3166667,0.517032088,0.002100237
742.65,0.521811043,0.002026054
744.9833333,0.527388436,0.001959028
747.3166667,0.531371871,0.001897677
749.65,0.535355307,0.001839959
751.9833333,0.539338742,0.001784358
754.3166667,0.542525198,0.001730953
756.65,0.545711655,0.001680181
758.9833333,0.54969509,0.001632775
761.3166667,0.553678525,0.001589721
763.65,0.556864981,0.001552284
765.9833333,0.560051438,0.001520681
768.3166667,0.563237894,0.001494363
770.4833333,0.567221329,0.00147393
772.8166667,0.570407785,0.00145501
775.15,0.573594242,0.001437573
777.4833333,0.576780698,0.001420744
779.8166667,0.580764133,0.001404691
782.15,0.583950589,0.001389641
784.4833333,0.587137046,0.001375261
786.8166667,0.590324962,0.001361796
789.15,0.593511418,0.001349034
791.4833333,0.596697874,0.001336279
793.8166667,0.59988433,0.001322503
796.15,0.602273808,0.00130731
798.4833333,0.605460264,0.001290671
800.8166667,0.607851201,0.00127288
803.15,0.611037657,0.001254537
805.4833333,0.614224114,0.001236531
807.8166667,0.61741057,0.001219576
810.15,0.619800047,0.001203914
812.4833333,0.622987963,0.001189039
814.8166667,0.62537744,0.00117476
817.15,0.628563897,0.001160895
819.4833333,0.630953374,0.001147207
821.8166667,0.633344311,0.001133316
824.15,0.635733788,0.001118996
826.4833333,0.638123265,0.001104492
828.8166667,0.641311181,0.001090706
831.15,0.643700659,0.001078367
833.4833333,0.646090136,0.00106797
835.65,0.648481073,0.001059516
837.9833333,0.65087055,0.001051135
840.3166667,0.653260027,0.001043101
842.65,0.655650964,0.001035074
844.9833333,0.658040442,0.001026802
847.3166667,0.660429919,0.001018543
849.65,0.662820856,0.001010298
851.9833333,0.665210333,0.001001982
854.3166667,0.667599811,0.000994094
856.65,0.669990747,0.000987058
858.9833333,0.672380225,0.000980486
861.3166667,0.673974183,0.00097378
863.65,0.67636366,0.00096647
865.9833333,0.678753137,0.000958946
868.3166667,0.680347095,0.000951574
870.65,0.682736573,0.000944065
872.9833333,0.68512751,0.000936269
875.3166667,0.687516987,0.000928864
877.65,0.689109485,0.000922405
879.9833333,0.691500422,0.000916509
882.3166667,0.693889899,0.000910707
884.65,0.695483857,0.00090484
886.9833333,0.697873335,0.000898492
889.3166667,0.699467293,0.000891694
891.65,0.70185677,0.000884225
893.9833333,0.704246247,0.000876118
896.3166667,0.705840205,0.000867012
898.65,0.707432703,0.00085696
900.8166667,0.70982364,0.00084795
903.15,0.712213118,0.000839456
905.4833333,0.713807076,0.000831972
907.8166667,0.715399574,0.000824882
910.15,0.717790511,0.000817948
912.4833333,0.719383009,0.000810631
914.8166667,0.721772486,0.000802461
917.15,0.723366444,0.000793695
919.4833333,0.724960402,0.00078438
921.8166667,0.726552901,0.000775011
924.15,0.728146859,0.000766093
926.4833333,0.730536336,0.000758059
928.8166667,0.732925813,0.00075217
931.15,0.734519771,0.000748785
933.4833333,0.736113729,0.00074677
935.8166667,0.737706228,0.000745034
938.15,0.739300185,0.000743379
940.4833333,0.740892684,0.000741607
942.8166667,0.742486642,0.000739154
945.15,0.74407914,0.000735872
947.4833333,0.745673098,0.000731632
949.8166667,0.748062575,0.000727064
952.15,0.749656533,0.000723112
954.4833333,0.752046011,0.00072043
956.8166667,0.753639969,0.000719111
959.15,0.755232467,0.000716136
961.4833333,0.756826425,0.00071474
963.65,0.758418923,0.000712329
965.9833333,0.760012881,0.00070813
968.3166667,0.761606839,0.000702395
970.65,0.763199337,0.000695641
972.9833333,0.764793295,0.000688633
975.3166667,0.766385794,0.000682144
977.65,0.767979752,0.000676895
979.9833333,0.76957225,0.000672602
982.3166667,0.771166208,0.000668923
984.65,0.772758706,0.000665432
986.9833333,0.774352664,0.00066208
991.65,0.775946622,0.000656359
993.9833333,0.77753912,0.000653189
996.3166667,0.779133078,0.000648802
998.65,0.780725577,0.000643796
1000.983333,0.782319535,0.000638518
1003.316667,0.783912033,0.000633134
1005.65,0.785505991,0.000627715
1010.316667,0.787099949,0.000616845
1012.65,0.788692447,0.000611386
1014.983333,0.790286405,0.000605933
1017.316667,0.791878903,0.000600489
1019.65,0.793472861,0.000595031
1024.316667,0.79506536,0.000583878
,,
Ceniza,,
