T(K),a,da/dT
301.15,0.00557341,2.79E-03
303.15,0.011045116,2.74E-03
305.15,0.016679549,2.82E-03
307.15,0.022517391,2.92E-03
309.15,0.0282637,2.87E-03
311.15,0.033938815,2.84E-03
313.15,0.039583418,2.82E-03
315.15,0.044688987,2.55E-03
317.15,0.049570807,2.44E-03
319.15,0.05388308,2.16E-03
321.15,0.057788536,1.95E-03
323.15,0.061277003,1.74E-03
325.15,0.064358651,1.54E-03
327.15,0.066972458,1.31E-03
329.15,0.069372686,1.20E-03
331.15,0.071264391,9.46E-04
333.15,0.073003539,8.70E-04
335.15,0.074457915,7.27E-04
337.15,0.075759733,6.51E-04
339.15,0.076908995,5.75E-04
341.15,0.07769212,3.92E-04
343.15,0.078668484,4.88E-04
345.15,0.079329563,3.31E-04
347.15,0.080041495,3.56E-04
349.15,0.080468655,2.14E-04
351.15,0.081007689,2.70E-04
353.15,0.081414507,2.03E-04
355.15,0.081760303,1.73E-04
357.15,0.081994223,1.17E-04
359.15,0.082116269,6.10E-05
361.15,0.082624792,2.54E-04
363.15,0.082777348,7.63E-05
365.15,0.083021439,1.22E-04
367.15,0.083194337,8.64E-05
369.15,0.083285871,4.58E-05
371.15,0.083458769,8.64E-05
373.15,0.083580814,5.24E-05
375.15,0.083631667,4.65E-05
377.15,0.083743542,4.42E-05
379.15,0.083845246,5.61E-05
381.15,0.08393678,3.75E-05
383.15,0.083967292,2.53E-05
385.15,0.084028315,3.18E-05
387.15,0.084119849,3.18E-05
389.15,0.084119849,6.55E-06
391.15,0.084109678,1.10E-05
393.15,0.084221553,3.19E-05
395.15,0.084262235,3.12E-05
397.15,0.084272406,3.33E-06
399.15,0.084272406,-4.15E-07
401.15,0.084302917,3.53E-05
403.15,0.084435133,8.15E-06
405.15,0.084302917,1.76E-05
407.15,0.084455474,-1.72E-06
409.15,0.084404621,2.82E-05
411.15,0.084445303,-1.58E-05
413.15,0.084404621,1.15E-05
415.15,0.084485985,1.98E-05
417.15,0.084526667,1.51E-05
419.15,0.084485985,7.13E-06
421.15,0.084567349,1.37E-05
423.15,0.084577519,9.00E-06
425.15,0.084557178,2.03E-05
427.15,0.084689394,7.23E-06
429.15,0.08458769,1.15E-05
431.15,0.084669053,-1.59E-06
433.15,0.084699565,4.06E-05
435.15,0.084780928,1.50E-05
437.15,0.084760587,1.73E-05
439.15,0.084831781,1.73E-05
441.15,0.084892803,3.79E-05
443.15,0.084974167,4.11E-05
445.15,0.085065701,3.75E-05
447.15,0.085106383,3.12E-05
449.15,0.085177576,2.82E-05
451.15,0.085248769,3.95E-05
453.15,0.085350474,5.31E-05
455.15,0.08548269,5.31E-05
457.15,0.085564054,6.33E-05
459.15,0.085736951,6.03E-05
461.15,0.085838656,7.31E-05
463.15,0.086011554,7.47E-05
465.15,0.086184451,8.82E-05
467.15,0.086347179,7.44E-05
469.15,0.086509906,1.11E-04
471.15,0.086865872,1.32E-04
473.15,0.087099793,1.60E-04
475.15,0.087465929,1.54E-04
477.15,0.087791384,1.75E-04
479.15,0.08815752,1.87E-04
481.15,0.088625361,2.28E-04
483.15,0.089144054,2.53E-04
485.15,0.089683089,2.86E-04
487.15,0.09037468,3.29E-04
489.15,0.091127293,3.96E-04
491.15,0.092022294,4.14E-04
493.15,0.092866442,4.68E-04
495.15,0.093964851,5.11E-04
497.15,0.09506326,5.61E-04
499.15,0.096243033,6.03E-04
501.15,0.097646556,6.93E-04
503.15,0.099182295,7.49E-04
505.15,0.100728205,8.16E-04
507.15,0.102569057,8.70E-04
509.15,0.10439974,9.56E-04
511.15,0.106494854,1.02E-03
513.15,0.108783207,1.17E-03
515.15,0.111397014,1.26E-03
517.15,0.114051503,1.38E-03
519.15,0.117133152,1.51E-03
521.15,0.120509743,1.70E-03
523.15,0.124252471,1.87E-03
525.15,0.128402018,2.08E-03
527.15,0.133029576,2.29E-03
529.15,0.13802327,2.54E-03
531.15,0.143708555,2.80E-03
533.15,0.14983117,3.09E-03
535.15,0.156584354,3.36E-03
537.15,0.163927424,3.69E-03
539.15,0.171992596,4.02E-03
541.15,0.180678166,4.32E-03
543.15,0.189831577,4.63E-03
545.15,0.199829136,4.95E-03
547.15,0.2103759,5.31E-03
549.15,0.221624425,5.56E-03
551.15,0.233228917,5.87E-03
553.15,0.245657215,6.16E-03
555.15,0.258553354,6.48E-03
557.15,0.271998698,6.68E-03
559.15,0.285657622,6.88E-03
561.15,0.29987592,7.09E-03
563.15,0.314490867,7.28E-03
565.15,0.329227859,7.41E-03
567.15,0.344330987,7.52E-03
569.15,0.359576502,7.63E-03
571.15,0.375045767,7.74E-03
573.15,0.390840487,7.86E-03
575.15,0.406828445,8.03E-03
577.15,0.423446971,8.29E-03
579.15,0.440848623,8.69E-03
581.15,0.459206298,9.19E-03
583.15,0.479028518,9.88E-03
585.15,0.500915341,1.10E-02
587.15,0.525873642,1.25E-02
589.15,0.554706887,1.44E-02
591.15,0.587333713,1.63E-02
593.15,0.622686221,1.77E-02
595.15,0.65783532,1.72E-02
597.15,0.688458566,1.60E-02
599.15,0.718227493,1.46E-02
601.15,0.742341646,1.13E-02
603.15,0.753376592,6.51E-03
605.15,0.760353525,3.30E-03
607.15,0.76602864,2.78E-03
609.15,0.77115455,2.55E-03
611.15,0.775934665,2.37E-03
613.15,0.780358814,2.24E-03
615.15,0.784660917,2.12E-03
617.15,0.788688418,2.02E-03
619.15,0.792502339,1.94E-03
621.15,0.796326431,1.89E-03
623.15,0.799845409,1.71E-03
625.15,0.803394898,1.71E-03
627.15,0.806791831,1.70E-03
629.15,0.810270127,1.69E-03
631.15,0.813483992,1.69E-03
633.15,0.816860583,1.68E-03
635.15,0.820155811,1.68E-03
637.15,0.82346121,1.68E-03
639.15,0.826847972,1.67E-03
641.15,0.82991945,1.67E-03
643.15,0.833112973,1.66E-03
645.15,0.836428542,1.66E-03
647.15,0.839683089,1.66E-03
649.15,0.842917294,1.66E-03
651.15,0.846192181,1.67E-03
653.15,0.849548432,1.68E-03
655.15,0.852986046,1.69E-03
657.15,0.856077865,1.70E-03
659.15,0.85953582,1.71E-03
661.15,0.863075139,1.72E-03
663.15,0.866502583,1.73E-03
665.15,0.869889345,1.75E-03
667.15,0.873479517,1.76E-03
669.15,0.877039177,1.77E-03
671.15,0.880598836,1.79E-03
673.15,0.884138155,1.80E-03
675.15,0.887819861,1.81E-03
677.15,0.89135918,1.82E-03
679.15,0.89515276,1.83E-03
681.15,0.898966682,1.84E-03
683.15,0.902567023,1.84E-03
685.15,0.906431797,1.85E-03
687.15,0.910174525,1.85E-03
689.15,0.913957935,1.85E-03
691.15,0.91741589,1.85E-03
693.15,0.921443391,1.85E-03
695.15,0.925257313,1.84E-03
697.15,0.928939018,1.83E-03
699.15,0.932620723,1.82E-03
701.15,0.936271917,1.80E-03
703.15,0.939973964,1.78E-03
705.15,0.943492942,1.75E-03
707.15,0.947113624,1.72E-03
709.15,0.950652943,1.68E-03
711.15,0.954263456,1.64E-03
713.15,0.957426468,1.59E-03
715.15,0.9608234,1.53E-03
717.15,0.964006753,1.47E-03
719.15,0.966996867,1.41E-03
721.15,0.969753061,1.34E-03
723.15,0.972549937,1.27E-03
725.15,0.975173915,1.19E-03
727.15,0.977269029,1.12E-03
729.15,0.979404825,1.03E-03
731.15,0.981266018,9.49E-04
733.15,0.982994996,8.65E-04
735.15,0.984459542,7.82E-04
737.15,0.985802042,7.02E-04
739.15,0.986900452,6.26E-04
741.15,0.987876815,5.55E-04
743.15,0.988741304,4.89E-04
745.15,0.989514259,4.29E-04
747.15,0.990073634,3.73E-04
749.15,0.990541475,3.22E-04
751.15,0.990836418,2.76E-04
753.15,0.99131443,2.34E-04
755.15,0.991497498,1.98E-04
757.15,0.991731419,1.67E-04
759.15,0.991934828,1.39E-04
761.15,0.992016191,1.17E-04
763.15,0.99220943,9.77E-05
765.15,0.992321305,8.24E-05
767.15,0.992382328,7.04E-05
769.15,0.992534885,6.10E-05
771.15,0.992606078,5.33E-05
773.15,0.992636589,4.70E-05
775.15,0.992778976,4.17E-05
777.15,0.992758635,3.75E-05
779.15,0.992839998,3.42E-05
781.15,0.993033237,3.16E-05
783.15,0.992962044,2.95E-05
785.15,0.99309426,2.79E-05
787.15,0.993053578,2.66E-05
789.15,0.993124771,2.58E-05
791.15,0.993155283,2.55E-05
793.15,0.993165453,2.55E-05
795.15,0.993165453,2.60E-05
797.15,0.993267158,2.70E-05
799.15,0.993429885,2.88E-05
801.15,0.993358692,3.16E-05
803.15,0.993368862,3.56E-05
805.15,0.99355193,4.09E-05
807.15,0.993440055,4.72E-05
809.15,0.993643464,5.48E-05
811.15,0.993714658,6.34E-05
813.15,0.993755339,7.32E-05
815.15,0.993846874,8.39E-05
817.15,0.994090965,9.57E-05
819.15,0.994172328,1.09E-04
821.15,0.994467271,1.23E-04
823.15,0.994711362,1.36E-04
825.15,0.995046988,1.49E-04
827.15,0.995341931,1.60E-04
829.15,0.995819942,1.69E-04
831.15,0.996186079,1.69E-04
833.15,0.99666409,1.68E-04
835.15,0.99710142,1.66E-04
837.15,0.997681136,1.65E-04
839.15,0.998189659,1.63E-04
841.15,0.998637159,1.62E-04
843.15,0.999033807,1.60E-04
845.15,0.999359261,1.57E-04
847.15,0.999572841,1.54E-04
849.15,0.999705057,1.51E-04
851.15,0.99978642,1.47E-04
853.15,1,1.42E-04
